Step,Activity,Dampening,CurrentCalcium,TargetCalcium,SynapticInput,BackgroundInput,GrownAxons,ConnectedAxons,GrownDendrites,ConnectedDendrites
1,-61.503,-12.2695,0.0048,0.6962,0.1,4.000925925925926,14.077777777777778,14.077777777777778,14.342592592592593,14.342592592592593
2,-62.3217,-12.3139,0.0117,0.6962,0.11805555555555555,3.9953703703703702,14.077777777777778,14.077777777777778,14.342592592592593,14.342592592592593
3,-62.7256,-12.2764,0.0185,0.6962,0.05555555555555555,4.0018518518518515,14.077777777777778,14.077777777777778,14.342592592592593,14.342592592592593
4,-63.0978,-12.2568,0.0253,0.6962,0.06944444444444445,3.9953703703703702,14.077777777777778,14.077777777777778,14.342592592592593,14.342592592592593
5,-63.3388,-12.2661,0.032,0.6962,0.05694444444444444,4.024074074074074,14.077777777777778,14.077777777777778,14.342592592592593,14.342592592592593
6,-63.5515,-12.1824,0.0387,0.6962,0.09722222222222222,3.9805555555555556,14.077777777777778,14.077777777777778,14.342592592592593,14.342592592592593
7,-63.7135,-12.1905,0.0453,0.6962,0.0763888888888889,3.9925925925925925,14.077777777777778,14.077777777777778,14.342592592592593,14.342592592592593
8,-63.9074,-12.1056,0.0519,0.6962,0.06527777777777778,3.9685185185185183,14.077777777777778,14.077777777777778,14.342592592592593,14.342592592592593
9,-64.1193,-12.0181,0.0584,0.6962,0.0875,3.938888888888889,14.077777777777778,14.077777777777778,14.342592592592593,14.342592592592593
10,-64.3718,-11.9588,0.065,0.6962,0.09166666666666666,3.988888888888889,14.077777777777778,14.077777777777778,14.342592592592593,14.342592592592593
11,-64.6395,-11.886,0.0714,0.6962,0.14722222222222223,4.022222222222222,14.077777777777778,14.077777777777778,14.342592592592593,14.342592592592593
12,-64.8265,-11.8268,0.0776,0.6962,0.13194444444444445,3.9592592592592593,14.077777777777778,14.077777777777778,14.342592592592593,14.342592592592593
13,-64.7279,-11.8325,0.0839,0.6962,0.12361111111111112,4.022222222222222,14.077777777777778,14.077777777777778,14.342592592592593,14.342592592592593
14,-64.9226,-11.7284,0.0901,0.6962,0.12222222222222222,4.020370370370371,14.077777777777778,14.077777777777778,14.342592592592593,14.342592592592593
15,-65.1273,-11.6526,0.0963,0.6962,0.2013888888888889,3.9675925925925926,14.077777777777778,14.077777777777778,14.342592592592593,14.342592592592593
16,-65.1798,-11.5575,0.1024,0.6962,0.2,3.9768518518518516,14.077777777777778,14.077777777777778,14.342592592592593,14.342592592592593
17,-65.0995,-11.396,0.1084,0.6962,0.37222222222222223,4.066666666666666,14.077777777777778,14.077777777777778,14.342592592592593,14.342592592592593
18,-65.0335,-11.2164,0.1144,0.6962,0.4638888888888889,4.022222222222222,14.077777777777778,14.077777777777778,14.342592592592593,14.342592592592593
19,-64.8316,-11.1572,0.1204,0.6962,0.4097222222222222,3.9138888888888888,14.077777777777778,14.077777777777778,14.342592592592593,14.342592592592593
20,-64.8697,-11.0149,0.1263,0.6962,0.5263888888888889,4.020370370370371,14.077777777777778,14.077777777777778,14.342592592592593,14.342592592592593
21,-64.6172,-11.012,0.1321,0.6962,0.5333333333333333,3.9703703703703703,14.077777777777778,14.077777777777778,14.342592592592593,14.342592592592593
22,-64.267,-10.8722,0.1379,0.6962,0.475,4.038888888888889,14.077777777777778,14.077777777777778,14.342592592592593,14.342592592592593
23,-63.8503,-10.7828,0.1435,0.6962,0.5791666666666667,4.044444444444444,14.077777777777778,14.077777777777778,14.342592592592593,14.342592592592593
24,-64.2867,-10.6901,0.1492,0.6962,0.5430555555555555,4.006481481481481,14.077777777777778,14.077777777777778,14.342592592592593,14.342592592592593
25,-63.3783,-10.6614,0.1548,0.6962,0.7194444444444444,3.9916666666666667,14.077777777777778,14.077777777777778,14.342592592592593,14.342592592592593
26,-62.9796,-10.6214,0.1603,0.6962,0.6847222222222222,4.034259259259259,14.077777777777778,14.077777777777778,14.342592592592593,14.342592592592593
27,-62.3817,-10.541,0.1658,0.6962,1.05,4.0472222222222225,14.077777777777778,14.077777777777778,14.342592592592593,14.342592592592593
28,-62.3489,-10.5429,0.1712,0.6962,1.2569444444444444,3.975925925925926,14.077777777777778,14.077777777777778,14.342592592592593,14.342592592592593
29,-62.0315,-10.4988,0.1767,0.6962,1.2416666666666667,3.9925925925925925,14.077777777777778,14.077777777777778,14.342592592592593,14.342592592592593
30,-62.6136,-10.4902,0.182,0.6962,1.4972222222222222,3.984259259259259,14.077777777777778,14.077777777777778,14.342592592592593,14.342592592592593
31,-62.29,-10.5497,0.1874,0.6962,1.4083333333333334,4.006481481481481,14.077777777777778,14.077777777777778,14.342592592592593,14.342592592592593
32,-62.9666,-10.6859,0.1927,0.6962,0.9222222222222223,4.002777777777778,14.077777777777778,14.077777777777778,14.342592592592593,14.342592592592593
33,-63.704,-10.8641,0.198,0.6962,0.7736111111111111,3.9833333333333334,14.077777777777778,14.077777777777778,14.342592592592593,14.342592592592593
34,-64.0899,-10.9416,0.2033,0.6962,0.5569444444444445,4.042592592592593,14.077777777777778,14.077777777777778,14.342592592592593,14.342592592592593
35,-64.387,-11.0602,0.2085,0.6962,0.5111111111111111,4.046296296296297,14.077777777777778,14.077777777777778,14.342592592592593,14.342592592592593
36,-64.7575,-11.0826,0.2136,0.6962,0.3625,3.9694444444444446,14.077777777777778,14.077777777777778,14.342592592592593,14.342592592592593
37,-64.9765,-11.1839,0.2185,0.6962,0.3236111111111111,3.9935185185185187,14.077777777777778,14.077777777777778,14.342592592592593,14.342592592592593
38,-65.0505,-11.3167,0.2234,0.6962,0.32083333333333336,3.971296296296296,14.077777777777778,14.077777777777778,14.342592592592593,14.342592592592593
39,-65.0009,-11.2739,0.2282,0.6962,0.2861111111111111,3.9935185185185187,14.077777777777778,14.077777777777778,14.342592592592593,14.342592592592593
40,-65.2904,-11.1986,0.233,0.6962,0.3375,4.011111111111111,14.077777777777778,14.077777777777778,14.342592592592593,14.342592592592593
41,-64.8858,-11.0878,0.2377,0.6962,0.39444444444444443,3.97962962962963,14.077777777777778,14.077777777777778,14.342592592592593,14.342592592592593
42,-64.6739,-11.0564,0.2423,0.6962,0.3125,3.9935185185185187,14.077777777777778,14.077777777777778,14.342592592592593,14.342592592592593
43,-64.7471,-11.0161,0.2469,0.6962,0.4236111111111111,3.984259259259259,14.077777777777778,14.077777777777778,14.342592592592593,14.342592592592593
44,-65.1296,-11.0197,0.2515,0.6962,0.3486111111111111,3.9953703703703702,14.077777777777778,14.077777777777778,14.342592592592593,14.342592592592593
45,-64.8098,-11.0082,0.2559,0.6962,0.44583333333333336,4.0018518518518515,14.077777777777778,14.077777777777778,14.342592592592593,14.342592592592593
46,-64.3199,-10.8747,0.2604,0.6962,0.41944444444444445,4.006481481481481,14.077777777777778,14.077777777777778,14.342592592592593,14.342592592592593
47,-64.2446,-10.7631,0.2648,0.6962,0.6069444444444444,3.986111111111111,14.077777777777778,14.077777777777778,14.342592592592593,14.342592592592593
48,-63.9892,-10.708,0.2693,0.6962,0.5763888888888888,4.023148148148148,14.077777777777778,14.077777777777778,14.342592592592593,14.342592592592593
49,-63.8505,-10.6517,0.2736,0.6962,0.625,4.033333333333333,14.077777777777778,14.077777777777778,14.342592592592593,14.342592592592593
50,-63.0001,-10.5116,0.2779,0.6962,0.6527777777777778,3.960185185185185,14.077777777777778,14.077777777777778,14.342592592592593,14.342592592592593
51,-62.2309,-10.3993,0.2821,0.6962,1.1152777777777778,4.008333333333334,14.077777777777778,14.077777777777778,14.342592592592593,14.342592592592593
52,-62.0045,-10.2443,0.2862,0.6962,1.9680555555555554,4.010185185185185,14.077777777777778,14.077777777777778,14.342592592592593,14.342592592592593
53,-59.573,-10.0975,0.2901,0.6962,3.363888888888889,4.016666666666667,14.077777777777778,14.077777777777778,14.342592592592593,14.342592592592593
54,-57.9403,-10.2752,0.294,0.6962,3.176388888888889,3.9990740740740742,14.077777777777778,14.077777777777778,14.342592592592593,14.342592592592593
55,-54.2894,-10.5846,0.2978,0.6962,2.7708333333333335,4.029629629629629,14.077777777777778,14.077777777777778,14.342592592592593,14.342592592592593
56,-55.1901,-10.6527,0.3018,0.6962,2.5347222222222223,3.966666666666667,14.077777777777778,14.077777777777778,14.342592592592593,14.342592592592593
57,-54.7776,-11.0939,0.3054,0.6962,1.726388888888889,4.022222222222222,14.077777777777778,14.077777777777778,14.342592592592593,14.342592592592593
58,-55.7279,-11.4255,0.3091,0.6962,1.6,4.011111111111111,14.077777777777778,14.077777777777778,14.342592592592593,14.342592592592593
59,-55.8024,-11.5042,0.3129,0.6962,1.1222222222222222,3.9425925925925926,14.077777777777778,14.077777777777778,14.342592592592593,14.342592592592593
60,-56.9627,-11.7594,0.3166,0.6962,0.7833333333333333,3.9972222222222222,14.077777777777778,14.077777777777778,14.342592592592593,14.342592592592593
61,-57.7033,-11.9081,0.3203,0.6962,0.7013888888888888,4.016666666666667,14.077777777777778,14.077777777777778,14.342592592592593,14.342592592592593
62,-59.0575,-12.1045,0.324,0.6962,0.35138888888888886,3.990740740740741,14.077777777777778,14.077777777777778,14.342592592592593,14.342592592592593
63,-59.2465,-12.074,0.3278,0.6962,0.38055555555555554,4.053703703703704,14.077777777777778,14.077777777777778,14.342592592592593,14.342592592592593
64,-59.6639,-12.1239,0.3315,0.6962,0.24444444444444444,4.032407407407407,14.077777777777778,14.077777777777778,14.342592592592593,14.342592592592593
65,-60.332,-12.1261,0.3353,0.6962,0.30833333333333335,4.025,14.077777777777778,14.077777777777778,14.342592592592593,14.342592592592593
66,-60.4261,-12.2135,0.3389,0.6962,0.15,3.9722222222222223,14.077777777777778,14.077777777777778,14.342592592592593,14.342592592592593
67,-61.5145,-12.233,0.3426,0.6962,0.1,4.029629629629629,14.077777777777778,14.077777777777778,14.342592592592593,14.342592592592593
68,-61.7836,-12.2414,0.3462,0.6962,0.059722222222222225,3.986111111111111,14.077777777777778,14.077777777777778,14.342592592592593,14.342592592592593
69,-62.8007,-12.3281,0.3497,0.6962,0.09305555555555556,4.006481481481481,14.077777777777778,14.077777777777778,14.342592592592593,14.342592592592593
70,-63.107,-12.2694,0.3532,0.6962,0.10833333333333334,4.010185185185185,14.077777777777778,14.077777777777778,14.342592592592593,14.342592592592593
71,-63.3654,-12.2442,0.3566,0.6962,0.04583333333333333,4.002777777777778,14.077777777777778,14.077777777777778,14.342592592592593,14.342592592592593
72,-63.5034,-12.1731,0.3601,0.6962,0.08194444444444444,3.971296296296296,14.077777777777778,14.077777777777778,14.342592592592593,14.342592592592593
73,-63.9101,-12.1385,0.3636,0.6962,0.12777777777777777,4.044444444444444,14.077777777777778,14.077777777777778,14.342592592592593,14.342592592592593
74,-64.3129,-12.0436,0.367,0.6962,0.12638888888888888,4.024074074074074,14.077777777777778,14.077777777777778,14.342592592592593,14.342592592592593
75,-64.4506,-11.9789,0.3703,0.6962,0.12083333333333333,4.011111111111111,14.077777777777778,14.077777777777778,14.342592592592593,14.342592592592593
76,-64.88,-11.8817,0.3737,0.6962,0.09444444444444444,4.0092592592592595,14.077777777777778,14.077777777777778,14.342592592592593,14.342592592592593
77,-64.8055,-11.854,0.377,0.6962,0.14166666666666666,3.974074074074074,14.077777777777778,14.077777777777778,14.342592592592593,14.342592592592593
78,-64.8924,-11.8203,0.3802,0.6962,0.09305555555555556,3.975,14.077777777777778,14.077777777777778,14.342592592592593,14.342592592592593
79,-64.9115,-11.7882,0.3835,0.6962,0.13333333333333333,3.9916666666666667,14.077777777777778,14.077777777777778,14.342592592592593,14.342592592592593
80,-64.9905,-11.6861,0.3867,0.6962,0.1597222222222222,4.041666666666667,14.077777777777778,14.077777777777778,14.342592592592593,14.342592592592593
81,-64.9001,-11.5499,0.3899,0.6962,0.2013888888888889,4.062962962962963,14.077777777777778,14.077777777777778,14.342592592592593,14.342592592592593
82,-65.531,-11.4031,0.393,0.6962,0.2722222222222222,3.9916666666666667,14.077777777777778,14.077777777777778,14.342592592592593,14.342592592592593
83,-65.1279,-11.3464,0.3961,0.6962,0.28888888888888886,3.9898148148148147,14.077777777777778,14.077777777777778,14.342592592592593,14.342592592592593
84,-65.1907,-11.2414,0.3992,0.6962,0.35138888888888886,3.975925925925926,14.077777777777778,14.077777777777778,14.342592592592593,14.342592592592593
85,-65.0688,-11.2194,0.4022,0.6962,0.30277777777777776,3.9916666666666667,14.077777777777778,14.077777777777778,14.342592592592593,14.342592592592593
86,-65.1687,-11.1978,0.4053,0.6962,0.2861111111111111,3.9657407407407406,14.077777777777778,14.077777777777778,14.342592592592593,14.342592592592593
87,-64.7802,-11.1039,0.4082,0.6962,0.4263888888888889,4.0092592592592595,14.077777777777778,14.077777777777778,14.342592592592593,14.342592592592593
88,-64.737,-11.029,0.4112,0.6962,0.2986111111111111,4.0018518518518515,14.077777777777778,14.077777777777778,14.342592592592593,14.342592592592593
89,-64.6189,-10.9571,0.4142,0.6962,0.4236111111111111,4.0092592592592595,14.077777777777778,14.077777777777778,14.342592592592593,14.342592592592593
90,-64.1058,-10.7772,0.4171,0.6962,0.5388888888888889,4.018518518518518,14.077777777777778,14.077777777777778,14.342592592592593,14.342592592592593
91,-63.3871,-10.6387,0.42,0.6962,0.6166666666666667,4.020370370370371,14.077777777777778,14.077777777777778,14.342592592592593,14.342592592592593
92,-63.0931,-10.5769,0.4229,0.6962,0.6541666666666667,3.9768518518518516,14.077777777777778,14.077777777777778,14.342592592592593,14.342592592592593
93,-62.5061,-10.462,0.4257,0.6962,1.0208333333333333,3.9805555555555556,14.077777777777778,14.077777777777778,14.342592592592593,14.342592592592593
94,-61.4756,-10.2345,0.4285,0.6962,1.851388888888889,4.002777777777778,14.077777777777778,14.077777777777778,14.342592592592593,14.342592592592593
95,-60.31,-10.1298,0.4311,0.6962,3.0652777777777778,3.9685185185185183,14.077777777777778,14.077777777777778,14.342592592592593,14.342592592592593
96,-58.9835,-10.2147,0.4337,0.6962,3.1013888888888888,3.9675925925925926,14.077777777777778,14.077777777777778,14.342592592592593,14.342592592592593
97,-57.6259,-10.3439,0.4363,0.6962,3.0277777777777777,3.939814814814815,14.077777777777778,14.077777777777778,14.342592592592593,14.342592592592593
98,-55.3503,-10.727,0.4386,0.6962,2.441666666666667,4.003703703703704,14.077777777777778,14.077777777777778,14.342592592592593,14.342592592592593
99,-54.8914,-11.2529,0.4408,0.6962,1.6944444444444444,4.055555555555555,14.077777777777778,14.077777777777778,14.342592592592593,14.342592592592593
100,-55.549,-11.5071,0.4432,0.6962,1.0694444444444444,4.019444444444445,14.077777777777778,14.077777777777778,14.342592592592593,14.342592592592593
101,-56.2507,-11.6991,0.4455,0.6962,0.8833333333333333,4.063888888888889,14.077777777777778,14.077777777777778,14.342592592592593,14.342592592592593
102,-57.2999,-11.7814,0.4481,0.6962,0.7722222222222223,3.984259259259259,14.077777777777778,14.077777777777778,14.342592592592593,14.342592592592593
103,-59.0993,-12.0211,0.4505,0.6962,0.49166666666666664,3.988888888888889,14.077777777777778,14.077777777777778,14.342592592592593,14.342592592592593
104,-60.3878,-12.1261,0.4529,0.6962,0.28888888888888886,4.0018518518518515,14.077777777777778,14.077777777777778,14.342592592592593,14.342592592592593
105,-61.0312,-12.2589,0.4553,0.6962,0.2152777777777778,4.016666666666667,14.077777777777778,14.077777777777778,14.342592592592593,14.342592592592593
106,-61.5963,-12.2826,0.4578,0.6962,0.1111111111111111,4.013888888888889,14.077777777777778,14.077777777777778,14.342592592592593,14.342592592592593
107,-61.9186,-12.2539,0.4602,0.6962,0.10972222222222222,4.034259259259259,14.077777777777778,14.077777777777778,14.342592592592593,14.342592592592593
108,-62.3277,-12.3065,0.4626,0.6962,0.06944444444444445,3.9851851851851854,14.077777777777778,14.077777777777778,14.342592592592593,14.342592592592593
109,-62.3719,-12.2909,0.4649,0.6962,0.11944444444444445,4.05,14.077777777777778,14.077777777777778,14.342592592592593,14.342592592592593
110,-63.0929,-12.2646,0.4673,0.6962,0.06388888888888888,4.030555555555556,14.077777777777778,14.077777777777778,14.342592592592593,14.342592592592593
111,-63.5572,-12.1996,0.4696,0.6962,0.08194444444444444,3.9916666666666667,14.077777777777778,14.077777777777778,14.342592592592593,14.342592592592593
112,-63.9574,-12.1208,0.4719,0.6962,0.06111111111111111,3.998148148148148,14.077777777777778,14.077777777777778,14.342592592592593,14.342592592592593
113,-64.3493,-12.0863,0.4743,0.6962,0.07916666666666666,4.042592592592593,14.077777777777778,14.077777777777778,14.342592592592593,14.342592592592593
114,-64.6654,-12.0325,0.4765,0.6962,0.08888888888888889,3.987037037037037,14.077777777777778,14.077777777777778,14.342592592592593,14.342592592592593
115,-64.9653,-11.9637,0.4787,0.6962,0.07361111111111111,4.0055555555555555,14.077777777777778,14.077777777777778,14.342592592592593,14.342592592592593
116,-64.9628,-11.8164,0.4809,0.6962,0.058333333333333334,4.008333333333334,14.077777777777778,14.077777777777778,14.342592592592593,14.342592592592593
117,-65.3428,-11.7082,0.483,0.6962,0.14027777777777778,4.003703703703704,14.077777777777778,14.077777777777778,14.342592592592593,14.342592592592593
118,-65.5063,-11.6494,0.4851,0.6962,0.125,3.9694444444444446,14.077777777777778,14.077777777777778,14.342592592592593,14.342592592592593
119,-65.3864,-11.5141,0.4871,0.6962,0.22916666666666666,4.034259259259259,14.077777777777778,14.077777777777778,14.342592592592593,14.342592592592593
120,-65.6894,-11.3811,0.4892,0.6962,0.2222222222222222,3.938888888888889,14.077777777777778,14.077777777777778,14.342592592592593,14.342592592592593
121,-65.3523,-11.2733,0.4913,0.6962,0.2777777777777778,4.012037037037037,14.077777777777778,14.077777777777778,14.342592592592593,14.342592592592593
122,-65.3921,-11.1415,0.4934,0.6962,0.3625,3.9657407407407406,14.077777777777778,14.077777777777778,14.342592592592593,14.342592592592593
123,-65.1694,-11.0915,0.4953,0.6962,0.31805555555555554,4.013888888888889,14.077777777777778,14.077777777777778,14.342592592592593,14.342592592592593
124,-64.7615,-10.8764,0.4973,0.6962,0.4652777777777778,3.9703703703703703,14.077777777777778,14.077777777777778,14.342592592592593,14.342592592592593
125,-64.3131,-10.8234,0.4993,0.6962,0.5680555555555555,4.037037037037037,14.077777777777778,14.077777777777778,14.342592592592593,14.342592592592593
126,-64.2401,-10.7746,0.5014,0.6962,0.5375,4.003703703703704,14.077777777777778,14.077777777777778,14.342592592592593,14.342592592592593
127,-63.5985,-10.6577,0.5034,0.6962,0.5597222222222222,4.018518518518518,14.077777777777778,14.077777777777778,14.342592592592593,14.342592592592593
128,-62.7898,-10.4321,0.5053,0.6962,0.6875,4.008333333333334,14.077777777777778,14.077777777777778,14.342592592592593,14.342592592592593
129,-62.4586,-10.3878,0.5072,0.6962,1.0361111111111112,3.988888888888889,14.077777777777778,14.077777777777778,14.342592592592593,14.342592592592593
130,-60.8928,-10.1979,0.5091,0.6962,2.7819444444444446,3.9916666666666667,14.077777777777778,14.077777777777778,14.342592592592593,14.342592592592593
131,-59.4471,-10.1262,0.5108,0.6962,3.4125,4.007407407407407,14.077777777777778,14.077777777777778,14.342592592592593,14.342592592592593
132,-57.1976,-10.3099,0.5125,0.6962,2.951388888888889,4.032407407407407,14.077777777777778,14.077777777777778,14.342592592592593,14.342592592592593
133,-55.13,-10.5584,0.5141,0.6962,2.625,4.002777777777778,14.077777777777778,14.077777777777778,14.342592592592593,14.342592592592593
134,-54.688,-10.7832,0.5156,0.6962,2.5708333333333333,4.023148148148148,14.077777777777778,14.077777777777778,14.342592592592593,14.342592592592593
